T since,X,Y,Z,Radius,,,SGP4 Test
0,4131.040619,-825.562265,5305.615012,6774.702968,,,1 25544U 98067A   16274.13098880  .00005780  00000-0  94956-4 0  9994
1,4231.804633,-377.3811633,5277.371786,6775.045384,,,2 25544  51.6434 254.5439 0006578  21.2685  71.2382 15.53986571 21317
2,4313.10646,72.53560046,5224.787991,6775.437867,,,30/8/8 3:8:37
3,4374.573908,522.1188825,5148.108232,6775.878052
4,4415.925711,969.3013862,5047.687788,6776.363115
5,4436.972807,1412.027066,4923.99099,6776.889803
6,4437.619221,1848.260492,4777.589125,6777.454466
7,4417.862526,2275.996132,4609.157853,6778.053099
8,4377.793901,2693.267527,4419.474164,6778.681383
9,4317.597758,3098.156297,4209.412863,6779.334738
10,4237.550959,3488.800967,3979.942618,6780.008375
11,4138.021603,3863.405548,3732.121553,6780.697346
12,4019.467397,4220.247845,3467.092433,6781.396609
13,3882.43361,4557.68745,3186.077437,6782.10108
14,3727.550608,4874.173373,2890.372547,6782.805693
15,3555.530992,5168.251281,2581.341578,6783.505457
16,3367.166336,5438.570289,2260.409869,6784.195508
17,3163.323543,5683.889289,1929.057666,6784.871168
18,2944.940837,5903.082754,1588.813239,6785.527985
19,2713.023404,6095.146005,1241.245743,6786.161788
20,2468.638706,6259.199896,887.9578859,6786.768716
21,2212.91149,6394.494898,530.5784232,6787.345263
22,1947.018519,6500.414552,170.7545251,6787.8883
23,1672.183055,6576.478281,-189.8559408,6788.3951
24,1389.669116,6622.34353,-549.5921723,6788.863354
25,1100.775549,6637.807241,-906.7981983,6789.291181
26,806.8299444,6622.806646,-1259.830605,6789.677134
27,509.1824283,6577.419383,-1607.066178,6790.02019
28,209.1993645,6501.86293,-1946.909434,6790.319748
29,-91.74299667,6396.493384,-2277.799973,6790.57561
30,-392.264891,6261.803571,-2598.219657,6790.787959
31,-690.989402,6098.420533,-2906.699537,6790.957336
32,-986.5487776,5907.102385,-3201.826527,6791.084611
33,-1277.590673,5688.734595,-3482.249782,6791.170942
34,-1562.78429,5444.32568,-3746.686755,6791.217747
35,-1840.826384,5175.002379,-3993.928908,6791.226658
36,-2110.447116,4882.004308,-4222.847059,6791.19948
37,-2370.415724,4566.67815,-4432.396349,6791.138154
38,-2619.545989,4230.471396,-4621.620802,6791.04471
39,-2856.701488,3874.925675,-4789.657481,6790.921231
40,-3080.800597,3501.669714,-4935.740213,6790.769806
41,-3290.821244,3112.411951,-5059.202891,6790.5925
42,-3485.805393,2708.932834,-5159.482329,6790.391318
43,-3664.863237,2293.076848,-5236.12068,6790.168168
44,-3827.177103,1866.744289,-5288.767397,6789.924845
45,-3972.005043,1431.882817,-5317.180754,6789.662999
46,-4098.684111,990.4788351,-5321.228898,6789.384122
47,-4206.633309,544.5486927,-5300.890458,6789.089536
48,-4295.356199,96.1297761,-5256.254684,6788.780385
49,-4364.44316,-352.7285082,-5187.521135,6788.457633
50,-4413.573303,-799.9738155,-5094.998902,6788.122068
51,-4442.516,-1243.559983,-4979.105367,6787.774312
52,-4451.132064,-1681.45616,-4840.364514,6787.414831
53,-4439.374523,-2111.655902,-4679.40476,6787.04396
54,-4407.289024,-2532.186218,-4496.956347,6786.661917
55,-4355.013821,-2941.116514,-4293.848269,6786.268834
56,-4282.77938,-3336.567401,-4071.00475,6785.864787
57,-4190.907554,-3716.719342,-3829.441279,6785.449823
58,-4079.810358,-4079.82108,-3570.260218,6785.023996
59,-3949.988327,-4424.197812,-3294.645974,6784.587398
60,-3802.028454,-4748.25908,-3003.859773,6784.140195
61,-3636.601717,-5050.506313,-2699.234038,6783.682662
62,-3454.460197,-5329.539995,-2382.166396,6783.215208
63,-3256.433795,-5584.06641,-2054.113341,6782.738411
64,-3043.426551,-5812.903924,-1716.583569,6782.253044
65,-2816.412594,-6014.98876,-1371.131033,6781.760095
66,-2576.431719,-6189.380236,-1019.347728,6781.26079
67,-2324.584634,-6335.26542,-662.8562679,6780.756602
68,-2062.027869,-6451.963179,-303.3022663,6780.249262
69,-1789.968409,-6538.927589,57.65341315,6779.740765
70,-1509.658043,-6595.750686,418.3425125,6779.233362
71,-1222.387491,-6622.164527,777.0972882,6778.729556
72,-929.4803136,-6618.042567,1132.258431,6778.232088
73,-632.2866595,-6583.400322,1482.182951,6777.743911
74,-332.1768784,-6518.395325,1825.251984,6777.268173
75,-30.53503272,-6423.326374,2159.87847,6776.80818
76,271.2476504,-6298.632085,2484.514675,6776.36736
77,571.7793517,-6144.888743,2797.659497,6775.949229
78,869.6742206,-5962.807494,3097.865525,6775.557341
79,1163.55889,-5753.230873,3383.745825,6775.195243
80,1452.078906,-5517.128713,3653.9804,6774.86643
81,1733.905049,-5255.593448,3907.322305,6774.57429
82,2007.739507,-4969.834856,4142.603397,6774.322057
83,2272.321869,-4661.174257,4358.739674,6774.112759
84,2526.434931,-4331.038217,4554.736202,6773.94917
85,2768.910258,-3980.951795,4729.691604,6773.833765
86,2998.633515,-3612.531349,4882.802098,6773.768673
87,3214.549515,-3227.476974,5013.365067,6773.755641
88,3415.666983,-2827.564571,5120.782154,6773.795997
89,3601.06302,-2414.637623,5204.561886,6773.890621
90,3769.887239,-1990.598683,5264.321793,6774.039921
91,3921.365571,-1557.400634,5299.790054,6774.243817
92,4054.803723,-1117.037744,5310.806633,6774.501727
93,4169.590281,-671.5365605,5297.323932,6774.812566
94,4265.199443,-222.9466767,5259.406941,6775.174749
95,4341.193373,226.6685957,5197.232899,6775.586201
96,4397.224171,675.241609,5111.090461,6776.044373
97,4433.035451,1120.709782,5001.37837,6776.546268
98,4448.463515,1561.024985,4868.603652,6777.088473
99,4443.438119,1994.162875,4713.379323,6777.66719
100,4417.982832,2418.132139,4536.421624,6778.278284
101,4372.214966,2830.983604,4338.54679,6778.917327
102,4306.345099,3230.819183,4120.667358,6779.579646
103,4220.676165,3615.800614,3883.788033,6780.260382
104,4115.602126,3984.157942,3629.00112,6780.954541
105,3991.60622,4334.197723,3357.481541,6781.657055
106,3849.258795,4664.310886,3070.48145,6782.362837
107,3689.214726,4972.980231,2769.324482,6783.06684
108,3512.210432,5258.78751,2455.39964,6783.764116
109,3319.060495,5520.42006,2130.154863,6784.449863
110,3110.653912,5756.676947,1795.090298,6785.119484
111,2887.949966,5966.474588,1451.751312,6785.768629
112,2651.97377,6148.851809,1101.721271,6786.39324
113,2403.81148,6302.974329,746.6141316,6786.989589
114,2144.60521,6428.13862,388.0668858,6787.554312
115,1875.547682,6523.77514,27.73188428,6788.084431
116,1597.876626,6589.450906,-332.7309016,6788.577378
117,1312.868975,6624.871414,-691.6616498,6789.031008
118,1021.834873,6629.881865,-1047.408442,6789.443607
119,726.1115434,6604.467731,-1398.334965,6789.81389
120,427.05704,6548.754634,-1742.828105,6790.140998
